702.6233475, 0.01693685807
705.7350433, 0.01543199173
708.8430976, 0.01293844732
711.9456895, 0.008961885808
713.4860609, 0.004007570850
715.0264323, -0.0009467441081
718.1308450, -0.004428966584
721.2461823, -0.004945154857
724.3633404, -0.004967004096
727.4804985, -0.004988853335
730.5976566, -0.005010702574
733.7166355, -0.004538212780
736.8392559, -0.003077044917
739.9564140, -0.003098894156
743.0753929, -0.002626404361
746.1980133, -0.001165236499
749.3151714, -0.001187085738
752.4323295, -0.001208934977
755.5549499, 0.0002522328857
758.6739288, 0.0007247226805
761.7983700, 0.002680229577
764.9209904, 0.004141397439
768.0490732, 0.007085582404
771.1753351, 0.009535428334
774.3107009, 0.01445696943
777.4406044, 0.01789549343
779.0137496, 0.02183928108
780.5850741, 0.02528872970
782.1582193, 0.02923251735
783.9923415, 0.03350404359
785.5727698, 0.03942518738
787.1531981, 0.04534633116
788.4726494, 0.05093973636
790.0603607, 0.05883823629
789.2665051, 0.05488898633
791.6498929, 0.06723107524
790.8542164, 0.06278748625
792.4564940, 0.07464069844
792.4419278, 0.07068598617
794.8344195, 0.08549977026
794.0369223, 0.08056184223
794.0259976, 0.07759580803
796.4275932, 0.09488128728
795.6319167, 0.09043769829
798.0171253, 0.1032741262
797.2196281, 0.09833619821
799.6121198, 0.1131499823
798.8146225, 0.1082120543
801.2071142, 0.1230258384
800.4096170, 0.1180879103
802.8002879, 0.1324073554
802.0046114, 0.1279637664
804.3879993, 0.1403058553
803.5923228, 0.1358622663
805.9920976, 0.1526534065
805.1946003, 0.1477154785
805.1800342, 0.1437607662
807.5870920, 0.1625292626
806.7895948, 0.1575913346
809.1802657, 0.1719107796
808.3845892, 0.1674671906
811.0416995, 0.1835973914
809.9868668, 0.1793204028
809.9723006, 0.1753656905
812.3775377, 0.1936398479
811.5818612, 0.1891962589
814.2389715, 0.2053264596
813.1841388, 0.2010494711
813.1695726, 0.1970947588
815.5766304, 0.2158632551
814.7791332, 0.2109253271
817.1552380, 0.2212900599
817.9472729, 0.2247449708
820.2960661, 0.2276946181
822.6302931, 0.2266895531
823.3968372, 0.2232237176
824.9408501, 0.2192580807
825.7037527, 0.2148035671
826.4702969, 0.2113377315
827.2331995, 0.2068832179
827.9997436, 0.2034173823
828.7626462, 0.1989628687
829.5291903, 0.1954970332
830.2920929, 0.1910425196
830.2775268, 0.1870878073
831.0440709, 0.1836219717
831.8069735, 0.1791674581
832.5680553, 0.1742186055
833.3291372, 0.1692697528
833.3145710, 0.1653150406
833.3000049, 0.1613603283
833.2854387, 0.1574056160
834.0501621, 0.1534454414
834.8148854, 0.1494852669
834.8003193, 0.1455305546
834.7857531, 0.1415758423
834.7711870, 0.1376211300
835.5359103, 0.1336609555
836.3006337, 0.1297007809
836.2860675, 0.1257460686
836.2715014, 0.1217913563
837.0380455, 0.1183255208
837.8009481, 0.1138710072
837.7863819, 0.1099162949
838.5529261, 0.1064504594
839.3158287, 0.1019959458
840.0769105, 0.09704709310
840.8379923, 0.09209824046
841.6027157, 0.08813806587
842.3674391, 0.08417789129
843.1285209, 0.07922903865
843.1139547, 0.07527432637
843.8750366, 0.07032547373
844.6397599, 0.06636529915
845.4044833, 0.06240512456
845.3899171, 0.05845041229
846.1564613, 0.05498457675
846.9193639, 0.05053006313
847.6804457, 0.04558121048
846.8938731, 0.04360931666
848.4415275, 0.04063235783
849.2026094, 0.03568350519
850.7393392, 0.02974051216
852.2815313, 0.02528053624
853.8255442, 0.02131489935
856.9317777, 0.01832701590
860.0434735, 0.01682214956
863.1642731, 0.01778897839
866.2923558, 0.02073316336
869.4277217, 0.02565470445
871.7837979, 0.03058170786
873.3569431, 0.03452549552
875.7203025, 0.04142985506
874.9264468, 0.03748060510
877.3007308, 0.04735099885
878.8793383, 0.05277780360
880.4670497, 0.06067630352
879.6713732, 0.05623271453
882.0547611, 0.06857480345
881.2590846, 0.06413121445
883.6552178, 0.07993367661
882.8613621, 0.07598442664
882.8467960, 0.07202971437
885.2593161, 0.09228122783
884.4636397, 0.08783763884
884.4490735, 0.08388292657
886.8779806, 0.1085834913
886.0804834, 0.1036455633
886.0659172, 0.09969085103
886.0513510, 0.09573613876
888.5021074, 0.1263687719
887.7046101, 0.1214308439
887.6900440, 0.1174761316
887.6754778, 0.1135214194
890.1225926, 0.1431653745
889.3287369, 0.1392161245
889.3141707, 0.1352614122
889.2996046, 0.1313067000
891.7540024, 0.1629280112
891.7394363, 0.1589732989
891.7266909, 0.1555129257
890.9310144, 0.1510693367
890.9164483, 0.1471146244
893.3562800, 0.1747812234
893.3435346, 0.1713208502
892.5478581, 0.1668772612
894.9458121, 0.1831740623
894.1501357, 0.1787304734
896.5171366, 0.1866235110
898.0666118, 0.1841408912
899.6124454, 0.1806695933
901.1528168, 0.1757152784
901.1382506, 0.1717605661
902.6786220, 0.1668062511
903.4433453, 0.1628460766
904.2098895, 0.1593802410
905.7539024, 0.1554146041
907.2979153, 0.1514489672
910.4059695, 0.1489554228
913.5340522, 0.1518996078
915.1126598, 0.1573264125
916.7295035, 0.1731343370
915.9338270, 0.1686907480
915.9192608, 0.1647360357
915.9046947, 0.1607813235
918.3190356, 0.1815271760
917.5215384, 0.1765892479
919.8994639, 0.1874483197
921.4780714, 0.1928751245
923.0530374, 0.1973132512
926.1920447, 0.2032234703
929.3219482, 0.2066619943
932.4409271, 0.2071344841
935.5489814, 0.2046409397
937.8704630, 0.2001755015
939.4144759, 0.1962098646
940.1810201, 0.1927440291
941.7195706, 0.1872953751
942.4806525, 0.1823465224
943.2471966, 0.1788806869
944.0100992, 0.1744261733
944.7766433, 0.1709603377
946.3206562, 0.1669947008
947.8646691, 0.1630290639
950.9636195, 0.1580638244
954.0734946, 0.1560646190
957.1906527, 0.1560427697
960.3150939, 0.1579982766
963.4449974, 0.1614368006
966.5840047, 0.1673470198
965.7901490, 0.1633977698
969.7302951, 0.1752345951
968.9364394, 0.1712853451
971.5959774, 0.1880746646
971.3198273, 0.1836274341
970.5277924, 0.1801725231
972.9348502, 0.1989410195
972.1373530, 0.1940030915
973.7323474, 0.2038789475
976.0938860, 0.2102889680
975.3018511, 0.2068340571
977.6670312, 0.2142327557
979.2419972, 0.2186708824
981.5944319, 0.2226092077
983.9450459, 0.2260531940
987.0713079, 0.2285030399
990.1902867, 0.2289755297
992.5263346, 0.2284648038
994.8496370, 0.2244937046
996.3918291, 0.2200337287
997.1583732, 0.2165678931
998.7060277, 0.2135909343
999.4725718, 0.2101250987
1000.239116, 0.2066592632
1002.562418, 0.2026881640
1004.104610, 0.1982281881
1007.209023, 0.1947459656
1010.311615, 0.1907694041
1009.525043, 0.1887975103
1013.414207, 0.1867928426
1016.522261, 0.1842992982
1019.632136, 0.1823000928
1022.742011, 0.1803008874
1025.853707, 0.1787960211
1028.969045, 0.1782798328
1032.080740, 0.1767749665
1035.197898, 0.1767531172
1038.315057, 0.1767312680
1041.432215, 0.1767094187
1044.551194, 0.1771819085
1047.670172, 0.1776543983
1050.790972, 0.1786212272
1053.908130, 0.1785993779
1057.028930, 0.1795662067
1060.149729, 0.1805330356
1063.270529, 0.1814998644
1066.389508, 0.1819723542
1069.508487, 0.1824448440
1072.625645, 0.1824229948
1075.742803, 0.1824011455
1078.854499, 0.1808962792
1081.968015, 0.1798857519
1085.077890, 0.1778865465
1088.187765, 0.1758873411
1091.306744, 0.1763598309
1094.438469, 0.1802926939
1097.573834, 0.1852142350
1100.700096, 0.1876640810
1103.820896, 0.1886309098
1106.930771, 0.1866317044
1110.049750, 0.1871041942
1110.843606, 0.1910534442
1113.197861, 0.1954861086
1116.313198, 0.1949699203
1119.419432, 0.1919820368
1120.965266, 0.1885107390
1124.089707, 0.1904662459
1127.219610, 0.1939047699
1130.336768, 0.1938829206
1133.439360, 0.1899063591
1136.549235, 0.1879071538
1139.651827, 0.1839305923
1142.761702, 0.1819313869
1145.873398, 0.1804265205
1148.988736, 0.1799103323
1152.111356, 0.1813715001
1153.684501, 0.1853152878
1155.274033, 0.1937081267
1154.476536, 0.1887701987
1157.111797, 0.1989683310
1159.975261, 0.2005960993
1161.524736, 0.1981134796
1163.070570, 0.1946421817
1163.057825, 0.1911818085
1163.820727, 0.1867272949
1164.587271, 0.1832614593
1165.350174, 0.1788069457
1165.339249, 0.1758409115
1167.662552, 0.1718698123
1169.996779, 0.1708647473
1172.365601, 0.1792521239
1171.569924, 0.1748085349
1173.157635, 0.1827070349
1175.510070, 0.1866453602
1178.623587, 0.1856348329
1180.943248, 0.1806750556
1181.709792, 0.1772092201
1182.472694, 0.1727547065
1183.239239, 0.1692888709
1184.002141, 0.1648343573
1184.768685, 0.1613685218
1186.307236, 0.1559198678
1189.429856, 0.1573810356
1188.637821, 0.1539261247
1190.251023, 0.1687453711
1190.236457, 0.1647906588
1190.221891, 0.1608359466
1192.605279, 0.1731780355
1194.944968, 0.1736559876
1197.268271, 0.1696848884
1198.810463, 0.1652249125
1200.349013, 0.1597762585
1201.110095, 0.1548274058
1201.871177, 0.1498785532
1202.632259, 0.1449297005
1203.393341, 0.1399808479
1206.505037, 0.1384759815
1208.859292, 0.1429086459
1211.220831, 0.1493186664
1210.428796, 0.1458637555
1212.012866, 0.1527735773
1214.367121, 0.1572062417
1217.484279, 0.1571843925
1219.813044, 0.1546963104
1221.357057, 0.1507306735
1222.901070, 0.1467650366
1223.662152, 0.1418161840
1224.423233, 0.1368673313
1225.189778, 0.1334014958
1225.952680, 0.1289469821
1226.719224, 0.1254811466
1229.832741, 0.1244706193
1232.960824, 0.1274148043
1233.752858, 0.1308697152
1236.116218, 0.1377740747
1235.322362, 0.1338248248
1237.696646, 0.1436952185
1239.287999, 0.1525823965
1238.494143, 0.1486331465
1240.875710, 0.1604808964
1240.081855, 0.1565316465
1242.448856, 0.1644246841
1243.992869, 0.1604590472
1245.533240, 0.1555047322
1245.518674, 0.1515500200
1247.055404, 0.1456070269
1247.040837, 0.1416523147
1248.577567, 0.1357093216
1248.563001, 0.1317546094
1249.324083, 0.1268057567
1250.090627, 0.1233399212
1251.636461, 0.1198686233
1254.768185, 0.1238014863
1253.974329, 0.1198522364
1256.619301, 0.1326868436
1255.565682, 0.1287394144
1258.214295, 0.1425626996
1257.160677, 0.1386152704
1259.553168, 0.1534290545
1258.755671, 0.1484911265
1261.148163, 0.1633049106
1260.350665, 0.1583669825
1262.741336, 0.1726864276
1261.945660, 0.1682428386
1264.316302, 0.1771245543
1266.657812, 0.1780968454
1267.418894, 0.1731479928
1268.179976, 0.1681991401
1268.165410, 0.1642444279
1268.926492, 0.1592955752
1268.139919, 0.1573236814
1269.687574, 0.1543467226
1269.673007, 0.1503920103
1269.658441, 0.1464372980
1269.643875, 0.1424825857
1269.629309, 0.1385278735
1270.395853, 0.1350620379
1271.158756, 0.1306075243
1271.919838, 0.1256586717
1271.133265, 0.1236867778
1272.680919, 0.1207098190
1273.445643, 0.1167496444
1274.986014, 0.1117953295
1277.320241, 0.1107902645
1279.690884, 0.1196719802
1278.893386, 0.1147340521
1281.572346, 0.1367963213
1280.517513, 0.1325193327
1280.502947, 0.1285646205
1280.488381, 0.1246099082
1283.238957, 0.1661161793
1282.185338, 0.1621687501
1282.170772, 0.1582140379
1282.156206, 0.1542593256
1282.141640, 0.1503046133
1282.127074, 0.1463499011
1282.112508, 0.1423951888
1284.617887, 0.1878579930
1283.824031, 0.1839087430
1283.809465, 0.1799540307
1283.794899, 0.1759993185
1283.780333, 0.1720446062
1286.223806, 0.2006998832
1285.426309, 0.1957619552
1285.411743, 0.1918072429
1287.804234, 0.2066210270
1290.145744, 0.2075933182
1290.912289, 0.2041274826
1292.450839, 0.1986788286
1291.664267, 0.1967069348
1293.211921, 0.1937299760
1293.197355, 0.1897752637
1293.958437, 0.1848264111
1294.719519, 0.1798775584
1294.704952, 0.1759228461
1294.690386, 0.1719681339
1295.456930, 0.1685022983
1296.219833, 0.1640477847
1296.205267, 0.1600930724
1296.190701, 0.1561383602
1296.951782, 0.1511895075
1296.165210, 0.1492176137
1297.712864, 0.1462406549
1297.698298, 0.1422859426
1297.683732, 0.1383312303
1298.448455, 0.1343710557
1298.433889, 0.1304163435
1299.198613, 0.1264561689
1299.959694, 0.1215073162
1299.945128, 0.1175526040
1301.481858, 0.1116096109
1300.695285, 0.1096377171
1303.283206, 0.1069830346
1306.429497, 0.1148706099
1305.374664, 0.1105936213
1305.363740, 0.1076275871
1307.792647, 0.1323281519
1306.998791, 0.1283789019
1306.984225, 0.1244241897
1306.969659, 0.1204694774
1309.467755, 0.1639549254
1309.455010, 0.1604945522
1308.659333, 0.1560509632
1308.644767, 0.1520962509
1308.630201, 0.1481415387
1308.615635, 0.1441868264
1308.601068, 0.1402321141
1308.586502, 0.1362774018
1311.417193, 0.1995345905
1310.363574, 0.1955871613
1310.349008, 0.1916324490
1310.334441, 0.1876777368
1310.319875, 0.1837230245
1310.305309, 0.1797683122
1310.290743, 0.1758135999
1310.276177, 0.1718588877
1310.261611, 0.1679041754
1312.796122, 0.2212764041
1312.002267, 0.2173271542
1311.987700, 0.2133724419
1311.973134, 0.2094177296
1311.958568, 0.2054630174
1314.385654, 0.2296692431
1313.589978, 0.2252256541
1315.956979, 0.2331186917
1317.502813, 0.2296473938
1318.265715, 0.2251928802
1319.026797, 0.2202440276
1318.240224, 0.2182721338
1319.787879, 0.2152951749
1319.773313, 0.2113404627
1319.758747, 0.2073857504
1320.523470, 0.2034255758
1321.288193, 0.1994654012
1321.273627, 0.1955106890
1321.259061, 0.1915559767
1321.244495, 0.1876012644
1322.005577, 0.1826524118
1321.991010, 0.1786976995
1322.752092, 0.1737488468
1322.737526, 0.1697941346
1322.722960, 0.1658394223
1322.708394, 0.1618847100
1322.693828, 0.1579299978
1323.458551, 0.1539698232
1324.223274, 0.1500096486
1324.208708, 0.1460549363
1324.194142, 0.1421002241
1324.958865, 0.1381400495
1324.944299, 0.1341853372
1324.931554, 0.1307249640
1326.470104, 0.1252763100
1326.455538, 0.1213215977
1325.668966, 0.1193497039
1327.992268, 0.1153786047
1327.977702, 0.1114238924
1327.191129, 0.1094519986
1329.514432, 0.1054808994
1328.727859, 0.1035090056
1331.051162, 0.09953790636
1330.264589, 0.09756601253
1332.591533, 0.09458359140
1335.969668, 0.09488948075
1337.550096, 0.1008106245
1339.159657, 0.1146411929
1338.104824, 0.1103642043
1338.090258, 0.1064094920
1341.103025, 0.2191005841
1340.826875, 0.2146533535
1340.034840, 0.2111984426
1340.020274, 0.2072437303
1340.005708, 0.2032890181
1339.991142, 0.1993343058
1339.976576, 0.1953795935
1339.962010, 0.1914248813
1339.947443, 0.1874701690
1339.932877, 0.1835154567
1339.918311, 0.1795607444
1339.903745, 0.1756060322
1339.889179, 0.1716513199
1339.874613, 0.1676966076
1339.860046, 0.1637418954
1339.845480, 0.1597871831
1339.830914, 0.1558324708
1339.816348, 0.1518777585
1339.801782, 0.1479230463
1339.787216, 0.1439683340
1339.772649, 0.1400136217
1339.758083, 0.1360589095
1339.743517, 0.1321041972
1339.728951, 0.1281494849
1339.714385, 0.1241947726
1339.699819, 0.1202400604
1342.772064, 0.2490795608
1341.717232, 0.2448025723
1341.702666, 0.2408478600
1341.688099, 0.2368931477
1341.673533, 0.2329384355
1341.658967, 0.2289837232
1341.644401, 0.2250290109
1344.124290, 0.2635710686
1343.326792, 0.2586331406
1343.312226, 0.2546784283
1345.719284, 0.2734469247
1344.921787, 0.2685089967
1347.299712, 0.2793680685
1350.416870, 0.2793462193
1351.957242, 0.2743919043
1352.721965, 0.2704317297
1353.486689, 0.2664715551
1353.472122, 0.2625168429
1353.459377, 0.2590564696
1354.222280, 0.2546019560
1354.987003, 0.2506417814
1354.972437, 0.2466870692
1354.957871, 0.2427323569
1354.943304, 0.2387776446
1355.708028, 0.2348174700
1355.693462, 0.2308627578
1355.678896, 0.2269080455
1355.664329, 0.2229533332
1355.649763, 0.2189986210
1355.635197, 0.2150439087
1355.620631, 0.2110891964
1355.606065, 0.2071344841
1356.367147, 0.2021856315
1356.352580, 0.1982309192
1356.338014, 0.1942762069
1356.323448, 0.1903214947
1356.308882, 0.1863667824
1356.294316, 0.1824120701
1356.279750, 0.1784573579
1356.265183, 0.1745026456
1356.250617, 0.1705479333
1356.236051, 0.1665932211
1356.221485, 0.1626385088
1356.206919, 0.1586837965
1356.192353, 0.1547290842
1356.177786, 0.1507743720
1356.163220, 0.1468196597
1356.148654, 0.1428649474
1356.134088, 0.1389102352
1356.119522, 0.1349555229
1356.104956, 0.1310008106
1355.318383, 0.1290289168
1356.866038, 0.1260519580
1356.851471, 0.1220972457
1356.836905, 0.1181425334
1356.822339, 0.1141878212
1356.807773, 0.1102331089
1356.793207, 0.1062783966
1356.778641, 0.1023236843
1356.764074, 0.09836897207
1356.749508, 0.09441425980
1356.734942, 0.09045954753
1356.720376, 0.08650483525
1356.705810, 0.08255012298
1357.466892, 0.07760127033
1356.680319, 0.07562937651
1358.227973, 0.07265241769
1358.213407, 0.06869770542
1358.198841, 0.06474299314
1358.184275, 0.06078828087
1358.945357, 0.05583942822
1359.706439, 0.05089057558
1360.467520, 0.04594172293
1363.591962, 0.04789722982
1362.798106, 0.04394797986
1365.185135, 0.05727874685
1364.389459, 0.05283515785
1366.814724, 0.07654704455
1366.020869, 0.07259779459
1366.006303, 0.06864308232
1365.991736, 0.06468837005
1365.977170, 0.06073365778
1368.749596, 0.1081719973
1368.473446, 0.1037247668
1367.681411, 0.1002698559
1367.666845, 0.09631514360
1367.652279, 0.09236043132
1367.637712, 0.08840571905
1367.623146, 0.08445100678
1367.608580, 0.08049629451
1370.548517, 0.1734138252
1370.270546, 0.1684722556
1370.255980, 0.1645175433
1369.465765, 0.1615569714
1369.451199, 0.1576022592
1369.436633, 0.1536475469
1369.422067, 0.1496928346
1369.407501, 0.1457381224
1369.392935, 0.1417834101
1369.378368, 0.1378286978
1369.363802, 0.1338739855
1369.349236, 0.1299192733
1369.334670, 0.1259645610
1369.320104, 0.1220098487
1369.305538, 0.1180551365
1369.290971, 0.1141004242
1372.332871, 0.2347009408
1372.054900, 0.2297593712
1372.040334, 0.2258046589
1372.025768, 0.2218499466
1372.011202, 0.2178952344
1371.998456, 0.2144348611
1371.206421, 0.2109799502
1371.191855, 0.2070252379
1371.177289, 0.2030705257
1371.162723, 0.1991158134
1371.148157, 0.1951611011
1371.133591, 0.1912063889
1371.119024, 0.1872516766
1371.104458, 0.1832969643
1371.089892, 0.1793422520
1374.016476, 0.2686346298
1372.961644, 0.2643576413
1372.947077, 0.2604029290
1372.932511, 0.2564482167
1372.917945, 0.2524935044
1372.903379, 0.2485387922
1372.888813, 0.2445840799
1372.874247, 0.2406293676
1375.684302, 0.2982840472
1374.629469, 0.2940070587
1374.614903, 0.2900523464
1374.600337, 0.2860976341
1374.585770, 0.2821429219
1374.571204, 0.2781882096
1374.556638, 0.2742334973
1377.062017, 0.3196963015
1376.268162, 0.3157470515
1376.253596, 0.3117923393
1376.239029, 0.3078376270
1376.224463, 0.3038829147
1378.939838, 0.3358319645
1377.885006, 0.3315549760
1377.870439, 0.3276002637
1377.855873, 0.3236455515
1380.275676, 0.3458744211
1379.480000, 0.3414308321
1381.847001, 0.3493238697
1383.392835, 0.3458525718
1384.155737, 0.3413980582
1384.916819, 0.3364492056
1384.130246, 0.3344773117
1385.677901, 0.3315003529
1385.663335, 0.3275456406
1385.648768, 0.3235909284
1386.413492, 0.3196307538
1386.398926, 0.3156760415
1386.386180, 0.3122156683
1387.149083, 0.3077611547
1387.134517, 0.3038064424
1387.119951, 0.2998517301
1387.881032, 0.2949028775
1387.866466, 0.2909481652
1387.851900, 0.2869934529
1387.837334, 0.2830387407
1387.822768, 0.2790840284
1387.808202, 0.2751293161
1388.569283, 0.2701804635
1388.554717, 0.2662257512
1388.540151, 0.2622710389
1388.525585, 0.2583163267
1388.511019, 0.2543616144
1389.275742, 0.2504014398
1389.261176, 0.2464467275
1389.246610, 0.2424920153
1389.232044, 0.2385373030
1389.217477, 0.2345825907
1389.202911, 0.2306278784
1389.188345, 0.2266731662
1389.173779, 0.2227184539
1389.161034, 0.2192580807
1389.923936, 0.2148035671
1389.909370, 0.2108488548
1389.894804, 0.2068941425
1389.880238, 0.2029394302
1389.865672, 0.1989847180
1389.851105, 0.1950300057
1389.836539, 0.1910752934
1389.821973, 0.1871205812
1390.586696, 0.1831604066
1390.572130, 0.1792056943
1390.557564, 0.1752509820
1390.542998, 0.1712962698
1391.307721, 0.1673360952
1391.293155, 0.1633813829
1391.278589, 0.1594266706
1391.264023, 0.1554719584
1391.249457, 0.1515172461
1391.234891, 0.1475625338
1391.220324, 0.1436078216
1391.205758, 0.1396531093
1391.191192, 0.1356983970
1391.176626, 0.1317436847
1391.162060, 0.1277889725
1391.147494, 0.1238342602
1391.908575, 0.1188854076
1391.894009, 0.1149306953
1391.107437, 0.1129588015
1392.655091, 0.1099818426
1392.640525, 0.1060271304
1392.625959, 0.1020724181
1392.611393, 0.09811770582
1392.596826, 0.09416299355
1392.582260, 0.09020828128
1392.567694, 0.08625356901
1392.553128, 0.08229885673
1392.538562, 0.07834414446
1392.523996, 0.07438943219
1393.285078, 0.06944057954
1393.270511, 0.06548586727
1394.031593, 0.06053701462
1394.017027, 0.05658230235
1394.002461, 0.05262759008
1393.987895, 0.04867287781
1393.973329, 0.04471816554
1393.958762, 0.04076345327
1393.944196, 0.03680874100
1394.708920, 0.03284856642
1395.473643, 0.02888839184
1395.459077, 0.02493367957
1396.223800, 0.02097350499
1396.209234, 0.01701879271
1396.977599, 0.01404729620
1399.384657, 0.03281579256
1398.590801, 0.02886654260
1398.576235, 0.02491183033
1398.561669, 0.02095711806
1398.550744, 0.01799108385
1401.045199, 0.06048785384
1401.032454, 0.05702748060
1400.236777, 0.05258389160
1400.222211, 0.04862917933
1400.207645, 0.04467446706
1400.193079, 0.04071975479
1400.178512, 0.03676504252
1402.720307, 0.09211462738
1402.707562, 0.08865425415
1401.911885, 0.08421066515
1401.897319, 0.08025595288
1401.882753, 0.07630124061
1401.868187, 0.07234652834
1401.853621, 0.06839181607
1401.839055, 0.06443710380
1404.669745, 0.1276942924
1403.616126, 0.1237468632
1403.601560, 0.1197921510
1403.586994, 0.1158374387
1403.572428, 0.1118827264
1403.557861, 0.1079280142
1403.543295, 0.1039733019
1403.528729, 0.1000185896
1403.514163, 0.09606387735
1406.366702, 0.1652531344
1405.313084, 0.1613057052
1405.298517, 0.1573509929
1405.283951, 0.1533962807
1405.269385, 0.1494415684
1405.254819, 0.1454868561
1405.240253, 0.1415321438
1405.225687, 0.1375774316
1405.211120, 0.1336227193
1407.818463, 0.2067685094
1407.805718, 0.2033081361
1407.010041, 0.1988645472
1406.995475, 0.1949098349
1406.980909, 0.1909551226
1406.966343, 0.1870004103
1406.951777, 0.1830456981
1406.937210, 0.1790909858
1406.922644, 0.1751362735
1406.908078, 0.1711815613
1409.537270, 0.2502594197
1409.522704, 0.2463047075
1408.728848, 0.2423554575
1408.714282, 0.2384007452
1408.699716, 0.2344460330
1408.685150, 0.2304913207
1408.670583, 0.2265366084
1408.656017, 0.2225818962
1408.641451, 0.2186271839
1408.626885, 0.2146724716
1408.612319, 0.2107177593
1411.285209, 0.3016597546
1411.270643, 0.2977050424
1411.256077, 0.2937503301
1411.241510, 0.2897956178
1410.447655, 0.2858463679
1410.433089, 0.2818916556
1410.418522, 0.2779369433
1410.403956, 0.2739822311
1410.389390, 0.2700275188
1410.374824, 0.2660728065
1410.360258, 0.2621180942
1410.345692, 0.2581633820
1410.331126, 0.2542086697
1413.307477, 0.3570129811
1413.029507, 0.3520714115
1413.014940, 0.3481166992
1413.000374, 0.3441619869
1412.985808, 0.3402072747
1412.971242, 0.3362525624
1412.956676, 0.3322978501
1412.166462, 0.3293372782
1412.151895, 0.3253825660
1412.137329, 0.3214278537
1412.122763, 0.3174731414
1412.108197, 0.3135184292
1412.093631, 0.3095637169
1412.079065, 0.3056090046
1415.048133, 0.4064359598
1414.770163, 0.4014943903
1414.755596, 0.3975396780
1414.741030, 0.3935849657
1414.726464, 0.3896302534
1414.711898, 0.3856755412
1414.697332, 0.3817208289
1414.682766, 0.3777661166
1413.892551, 0.3748055447
1413.877985, 0.3708508325
1413.863419, 0.3668961202
1413.848853, 0.3629414079
1416.499894, 0.4479513348
1416.485328, 0.4439966225
1416.470762, 0.4400419103
1416.456196, 0.4360871980
1416.441629, 0.4321324857
1416.427063, 0.4281777735
1416.412497, 0.4242230612
1415.618641, 0.4202738112
1415.604075, 0.4163190990
1415.589509, 0.4123643867
1418.449332, 0.4835309999
1418.171361, 0.4785894303
1418.156795, 0.4746347180
1418.142228, 0.4706800058
1417.352014, 0.4677194339
1417.337448, 0.4637647216
1417.322882, 0.4598100093
1417.308316, 0.4558552970
1417.293750, 0.4519005848
1420.102591, 0.5092257050
1419.048972, 0.5052782758
1419.034406, 0.5013235635
1419.019840, 0.4973688513
1419.005273, 0.4934141390
1418.990707, 0.4894594267
1421.466954, 0.5270128064
1421.452388, 0.5230580941
1421.439643, 0.5195977209
1420.643966, 0.5151541319
1423.036458, 0.5299679160
1423.797540, 0.5250190633
1423.782974, 0.5210643510
1423.768408, 0.5171096388
1423.753841, 0.5131549265
1423.739275, 0.5092002142
1424.500357, 0.5042513616
1424.485791, 0.5002966493
1424.471225, 0.4963419370
1425.232307, 0.4913930844
1425.217740, 0.4874383721
1425.203174, 0.4834836598
1425.188608, 0.4795289476
1425.174042, 0.4755742353
1425.159476, 0.4716195230
1425.144910, 0.4676648108
1425.130343, 0.4637100985
1425.115777, 0.4597553862
1425.101211, 0.4558006740
1425.086645, 0.4518459617
1425.072079, 0.4478912494
1425.057513, 0.4439365371
1425.042946, 0.4399818249
1425.804028, 0.4350329722
1425.789462, 0.4310782599
1425.774896, 0.4271235477
1425.760330, 0.4231688354
1425.745764, 0.4192141231
1424.959191, 0.4172422293
1426.506846, 0.4142652705
1426.492279, 0.4103105582
1426.477713, 0.4063558459
1426.463147, 0.4024011337
1426.448581, 0.3984464214
1426.434015, 0.3944917091
1426.419449, 0.3905369969
1426.404882, 0.3865822846
1426.390316, 0.3826275723
1426.375750, 0.3786728600
1426.361184, 0.3747181478
1426.346618, 0.3707634355
1426.332052, 0.3668087232
1426.317485, 0.3628540110
1426.302919, 0.3588992987
1426.288353, 0.3549445864
1426.273787, 0.3509898742
1426.259221, 0.3470351619
1426.244655, 0.3430804496
1426.230088, 0.3391257373
1426.215522, 0.3351710251
1426.200956, 0.3312163128
1426.186390, 0.3272616005
1426.171824, 0.3233068883
1426.157258, 0.3193521760
1426.142692, 0.3153974637
1426.903773, 0.3104486111
1426.889207, 0.3064938988
1426.874641, 0.3025391865
1426.860075, 0.2985844743
1426.845509, 0.2946297620
1426.830943, 0.2906750497
1426.044370, 0.2887031559
1427.592024, 0.2857261971
1427.577458, 0.2817714848
1427.562892, 0.2778167725
1427.548326, 0.2738620602
1427.533760, 0.2699073480
1427.519194, 0.2659526357
1427.504627, 0.2619979234
1427.490061, 0.2580432112
1427.475495, 0.2540884989
1427.460929, 0.2501337866
1427.446363, 0.2461790744
1427.431797, 0.2422243621
1427.417230, 0.2382696498
1427.402664, 0.2343149375
1428.167388, 0.2303547630
1428.152822, 0.2264000507
1428.138255, 0.2224453384
1428.123689, 0.2184906261
1428.109123, 0.2145359139
1428.094557, 0.2105812016
1428.079991, 0.2066264893
1428.065425, 0.2026717771
1428.052679, 0.1992114038
1428.815582, 0.1947568902
1428.801016, 0.1908021779
1428.786449, 0.1868474657
1428.771883, 0.1828927534
1428.757317, 0.1789380411
1429.522040, 0.1749778665
1429.507474, 0.1710231543
1429.492908, 0.1670684420
1429.478342, 0.1631137297
1429.463776, 0.1591590175
1429.449210, 0.1552043052
1429.434644, 0.1512495929
1429.420077, 0.1472948806
1429.405511, 0.1433401684
1430.170235, 0.1393799938
1430.155668, 0.1354252815
1430.141102, 0.1314705693
1430.902184, 0.1265217166
1430.887618, 0.1225670043
1430.873052, 0.1186122921
1430.858486, 0.1146575798
1430.843919, 0.1107028675
1430.829353, 0.1067481552
1430.814787, 0.1027934430
1431.575869, 0.09784459033
1431.561303, 0.09388987806
1431.546737, 0.08993516579
1431.532170, 0.08598045352
1432.293252, 0.08103160087
1432.278686, 0.07707688860
1431.492114, 0.07510499477
1433.039768, 0.07212803595
1433.025202, 0.06817332368
1433.010636, 0.06421861141
1432.996070, 0.06026389914
1432.981503, 0.05630918686
1433.742585, 0.05136033422
1433.728019, 0.04740562195
1434.489101, 0.04245676930
1434.474535, 0.03850205703
1434.459969, 0.03454734475
1435.221050, 0.02959849211
1434.434478, 0.02762659828
1435.982132, 0.02464963946
1435.967566, 0.02069492719
1435.953000, 0.01674021492
1436.714082, 0.01179136227
1437.475164, 0.006842509619
1438.236245, 0.001893656970
1439.780258, -0.002071979920
1441.351583, 0.001377468698
1442.952039, 0.01273634186
1442.158184, 0.008787091896
1442.143618, 0.004832379625
1444.858992, 0.03678142945
1443.804160, 0.03250444090
1443.789594, 0.02854972863
1443.775027, 0.02459501636
1443.760461, 0.02064030409
1443.745895, 0.01668559182
1446.338671, 0.08587666963
1446.324105, 0.08192195736
1446.309539, 0.07796724509
1446.296794, 0.07450687185
1445.501117, 0.07006328286
1445.486551, 0.06610857059
1445.471985, 0.06215385832
1445.457419, 0.05819914604
1445.442853, 0.05424443377
1445.428287, 0.05028972150
1445.413720, 0.04633500923
1445.399154, 0.04238029696
1448.479897, 0.2440542359
1448.465331, 0.2400995236
1448.450765, 0.2361448113
1448.436198, 0.2321900990
1448.421632, 0.2282353868
1448.407066, 0.2242806745
1448.392500, 0.2203259622
1448.377934, 0.2163712500
1448.363368, 0.2124165377
1448.348801, 0.2084618254
1448.334235, 0.2045071131
1447.540380, 0.2005578632
1447.525813, 0.1966031509
1447.511247, 0.1926484386
1447.496681, 0.1886937264
1447.482115, 0.1847390141
1447.467549, 0.1807843018
1447.452983, 0.1768295896
1447.438417, 0.1728748773
1447.423850, 0.1689201650
1447.409284, 0.1649654527
1447.394718, 0.1610107405
1447.380152, 0.1570560282
1447.365586, 0.1531013159
1447.351020, 0.1491466037
1447.336453, 0.1451918914
1447.321887, 0.1412371791
1447.307321, 0.1372824668
1447.292755, 0.1333277546
1447.278189, 0.1293730423
1447.263623, 0.1254183300
1447.249056, 0.1214636178
1447.234490, 0.1175089055
1447.219924, 0.1135541932
1447.205358, 0.1095994809
1447.190792, 0.1056447687
1447.176226, 0.1016900564
1447.161660, 0.09773534413
1447.147093, 0.09378063186
1447.132527, 0.08982591959
1450.604128, 0.3270904482
1450.326158, 0.3221488786
1450.313412, 0.3186885053
1449.521377, 0.3152335944
1449.506811, 0.3112788821
1449.492245, 0.3073241699
1449.477679, 0.3033694576
1449.463113, 0.2994147453
1449.448547, 0.2954600331
1449.433980, 0.2915053208
1449.419414, 0.2875506085
1449.404848, 0.2835958963
1449.390282, 0.2796411840
1449.375716, 0.2756864717
1449.361150, 0.2717317594
1449.346583, 0.2677770472
1449.332017, 0.2638223349
1449.317451, 0.2598676226
1449.302885, 0.2559129104
1449.288319, 0.2519581981
1449.273753, 0.2480034858
1452.403049, 0.3923322760
1452.126899, 0.3878850455
1451.334864, 0.3844301345
1451.320298, 0.3804754223
1451.305732, 0.3765207100
1451.291166, 0.3725659977
1451.276600, 0.3686112855
1451.262033, 0.3646565732
1451.247467, 0.3607018609
1451.232901, 0.3567471486
1451.218335, 0.3527924364
1451.203769, 0.3488377241
1451.189203, 0.3448830118
1451.174636, 0.3409282996
1451.160070, 0.3369735873
1451.145504, 0.3330188750
1453.913074, 0.4496665001
1453.898508, 0.4457117878
1453.104653, 0.4417625379
1453.090086, 0.4378078256
1453.075520, 0.4338531133
1453.060954, 0.4298984010
1453.046388, 0.4259436888
1453.031822, 0.4219889765
1453.017256, 0.4180342642
1453.002689, 0.4140795520
1452.988123, 0.4101248397
1452.973557, 0.4061701274
1452.958991, 0.4022154151
1452.944425, 0.3982607029
1455.646447, 0.4971121227
1455.631881, 0.4931574104
1454.838025, 0.4892081605
1454.823459, 0.4852534482
1454.808893, 0.4812987359
1454.794327, 0.4773440237
1454.779761, 0.4733893114
1454.765195, 0.4694345991
1454.750629, 0.4654798869
1454.736062, 0.4615251746
1454.721496, 0.4575704623
1454.706930, 0.4536157500
1457.350688, 0.5366483208
1457.337943, 0.5331879476
1456.542266, 0.5287443586
1456.527700, 0.5247896463
1456.513134, 0.5208349340
1456.498568, 0.5168802218
1456.484002, 0.5129255095
1456.469435, 0.5089707972
1456.454869, 0.5050160849
1456.440303, 0.5010613727
1459.300126, 0.5722279859
1458.246507, 0.5682805567
1458.231941, 0.5643258444
1458.217374, 0.5603711321
1458.202808, 0.5564164199
1458.188242, 0.5524617076
1458.173676, 0.5485069953
1458.159110, 0.5445522830
1458.144544, 0.5405975708
1460.969165, 0.6022069626
1459.914332, 0.5979299741
1459.899766, 0.5939752618
1459.885200, 0.5900205495
1459.870634, 0.5860658373
1459.856067, 0.5821111250
1459.841501, 0.5781564127
1462.361447, 0.6275739292
1461.567591, 0.6236246792
1461.553025, 0.6196699669
1461.538459, 0.6157152547
1461.523893, 0.6117605424
1461.509326, 0.6078058301
1464.253834, 0.6476643045
1463.199001, 0.6433873160
1463.184435, 0.6394326037
1463.169869, 0.6354778914
1463.155302, 0.6315231791
1465.606059, 0.6621558123
1464.808562, 0.6572178843
1464.793995, 0.6532631720
1467.197412, 0.6710429903
1466.403556, 0.6670937403
1468.770557, 0.6749867780
1470.320032, 0.6725041582
1471.086576, 0.6690383226
1471.851300, 0.6650781480
1471.836733, 0.6611234358
1472.601457, 0.6571632612
1472.586891, 0.6532085489
1473.351614, 0.6492483743
1473.337048, 0.6452936621
1473.322482, 0.6413389498
1473.307916, 0.6373842375
1474.072639, 0.6334240629
1474.058073, 0.6294693507
1474.822796, 0.6255091761
1474.808230, 0.6215544638
1474.793664, 0.6175997515
1474.779098, 0.6136450393
1474.764532, 0.6096903270
1474.751786, 0.6062299538
1475.514689, 0.6017754402
1475.500123, 0.5978207279
1475.485556, 0.5938660156
1475.470990, 0.5899113033
1476.235714, 0.5859511288
1476.221147, 0.5819964165
1476.206581, 0.5780417042
1476.192015, 0.5740869919
1476.177449, 0.5701322797
1476.162883, 0.5661775674
1476.148317, 0.5622228551
1476.913040, 0.5582626806
1476.898474, 0.5543079683
1476.883908, 0.5503532560
1476.869342, 0.5463985437
1476.854775, 0.5424438315
1476.840209, 0.5384891192
1476.825643, 0.5345344069
1477.590366, 0.5305742323
1477.575800, 0.5266195201
1477.561234, 0.5226648078
1477.546668, 0.5187100955
1477.532102, 0.5147553833
1477.517536, 0.5108006710
1477.502969, 0.5068459587
1477.488403, 0.5028912464
1477.475658, 0.4994308732
1478.238561, 0.4949763596
1478.223994, 0.4910216473
1478.209428, 0.4870669351
1478.194862, 0.4831122228
1478.180296, 0.4791575105
1478.165730, 0.4752027982
1478.151164, 0.4712480860
1478.136597, 0.4672933737
1478.901321, 0.4633331991
1478.886755, 0.4593784868
1478.872188, 0.4554237746
1478.857622, 0.4514690623
1478.843056, 0.4475143500
1478.828490, 0.4435596378
1478.813924, 0.4396049255
1478.799358, 0.4356502132
1478.784792, 0.4316955010
1478.770225, 0.4277407887
1478.755659, 0.4237860764
1478.741093, 0.4198313641
1478.726527, 0.4158766519
1478.711961, 0.4119219396
1478.697395, 0.4079672273
1479.462118, 0.4040070527
1479.447552, 0.4000523405
1479.432986, 0.3960976282
1479.418419, 0.3921429159
1479.403853, 0.3881882037
1479.389287, 0.3842334914
1479.374721, 0.3802787791
1479.360155, 0.3763240668
1479.345589, 0.3723693546
1479.331022, 0.3684146423
1480.092104, 0.3634657897
1480.077538, 0.3595110774
1480.062972, 0.3555563651
1480.048406, 0.3516016528
1480.033840, 0.3476469406
1480.019274, 0.3436922283
1480.004707, 0.3397375160
1479.990141, 0.3357828038
1479.975575, 0.3318280915
1479.961009, 0.3278733792
1479.946443, 0.3239186669
1479.931877, 0.3199639547
1479.917310, 0.3160092424
1479.902744, 0.3120545301
1479.888178, 0.3080998179
1479.101605, 0.3061279240
1480.649260, 0.3031509652
1480.634694, 0.2991962529
1480.620128, 0.2952415407
1480.605561, 0.2912868284
1480.590995, 0.2873321161
1480.576429, 0.2833774039
1480.561863, 0.2794226916
1480.547297, 0.2754679793
1481.312020, 0.2715078047
1481.297454, 0.2675530925
1481.282888, 0.2635983802
1481.268322, 0.2596436679
1481.253756, 0.2556889557
1481.239189, 0.2517342434
1481.224623, 0.2477795311
1481.210057, 0.2438248188
1481.195491, 0.2398701066
1481.180925, 0.2359153943
1481.166359, 0.2319606820
1481.151792, 0.2280059698
1481.139047, 0.2245455965
1481.901950, 0.2200910829
1481.887383, 0.2161363706
1481.872817, 0.2121816584
1481.858251, 0.2082269461
1481.843685, 0.2042722338
1482.608408, 0.2003120592
1482.593842, 0.1963573470
1482.579276, 0.1924026347
1482.564710, 0.1884479224
1482.550144, 0.1844932102
1482.535578, 0.1805384979
1482.521011, 0.1765837856
1482.506445, 0.1726290733
1482.491879, 0.1686743611
1483.256602, 0.1647141865
1483.242036, 0.1607594742
1483.227470, 0.1568047619
1483.212904, 0.1528500497
1483.198338, 0.1488953374
1483.183772, 0.1449406251
1483.169205, 0.1409859129
1483.154639, 0.1370312006
1483.140073, 0.1330764883
1483.901155, 0.1281276357
1483.886589, 0.1241729234
1483.872023, 0.1202182111
1483.085450, 0.1182463173
1484.633104, 0.1152693585
1484.618538, 0.1113146462
1484.603972, 0.1073599339
1484.589406, 0.1034052217
1484.574840, 0.09945050940
1484.560274, 0.09549579713
1484.545708, 0.09154108486
1484.531141, 0.08758637259
1485.292223, 0.08263751994
1485.277657, 0.07868280767
1486.038739, 0.07373395502
1486.024173, 0.06977924275
1486.009607, 0.06582453048
1485.995040, 0.06186981821
1485.980474, 0.05791510594
1485.965908, 0.05396039367
1486.730631, 0.05000021908
1486.717886, 0.04653984585
1487.480789, 0.04208533223
1487.466222, 0.03813061996
1487.451656, 0.03417590769
1487.437090, 0.03022119542
1488.203634, 0.02675535987
1488.966537, 0.02230084626
1488.951971, 0.01834613399
1489.713053, 0.01339728134
1491.257065, 0.009431644448
1492.830211, 0.01337543210
1494.439771, 0.02720600043
1493.642274, 0.02226807240
1493.627708, 0.01831336013
1496.349152, 0.05191020673
1495.295533, 0.04796277754
1495.280967, 0.04400806527
1495.266401, 0.04005335300
1495.251835, 0.03609864073
1495.237269, 0.03214392846
1498.031543, 0.08551433642
1496.977925, 0.08156690723
1496.963358, 0.07761219495
1496.948792, 0.07365748268
1496.934226, 0.06970277041
1496.919660, 0.06574805814
1496.905094, 0.06179334587
1496.890528, 0.05783863360
1499.527002, 0.1388938482
1499.512436, 0.1349391360
1499.497870, 0.1309844237
1498.704014, 0.1270351737
1498.689448, 0.1230804615
1498.674882, 0.1191257492
1498.660316, 0.1151710369
1498.645750, 0.1112163246
1498.631184, 0.1072616124
1498.616618, 0.1033069001
1498.602051, 0.09935218783
1498.587485, 0.09539747555
1498.572919, 0.09144276328
1501.376905, 0.2179771690
1501.362339, 0.2140224568
1501.347772, 0.2100677445
1501.333206, 0.2061130322
1500.539351, 0.2021637823
1500.524784, 0.1982090700
1500.510218, 0.1942543577
1500.495652, 0.1902996454
1500.481086, 0.1863449332
1500.466520, 0.1823902209
1500.451954, 0.1784355086
1500.437387, 0.1744807964
1500.422821, 0.1705260841
1500.408255, 0.1665713718
1500.393689, 0.1626166595
1500.379123, 0.1586619473
1500.364557, 0.1547072350
1500.349990, 0.1507525227
1500.335424, 0.1467978105
1500.320858, 0.1428430982
1503.515702, 0.3049680936
1503.237732, 0.3000265240
1503.223165, 0.2960718118
1502.432951, 0.2931112399
1502.418385, 0.2891565276
1502.403819, 0.2852018153
1502.389253, 0.2812471031
1502.374687, 0.2772923908
1502.360120, 0.2733376785
1502.345554, 0.2693829662
1502.330988, 0.2654282540
1502.316422, 0.2614735417
1502.301856, 0.2575188294
1502.287290, 0.2535641172
1502.272724, 0.2496094049
1502.258157, 0.2456546926
1502.243591, 0.2416999803
1502.229025, 0.2377452681
1502.214459, 0.2337905558
1502.199893, 0.2298358435
1502.185327, 0.2258811313
1502.170760, 0.2219264190
1505.083992, 0.3781211668
1505.069426, 0.3741664545
1505.054860, 0.3702117422
1505.040294, 0.3662570299
1505.027548, 0.3627966567
1504.231872, 0.3583530677
1504.217306, 0.3543983554
1504.202740, 0.3504436432
1504.188173, 0.3464889309
1504.173607, 0.3425342186
1504.159041, 0.3385795064
1504.144475, 0.3346247941
1504.129909, 0.3306700818
1504.115343, 0.3267153695
1504.100777, 0.3227606573
1504.086210, 0.3188059450
1504.071644, 0.3148512327
1504.057078, 0.3108965205
1507.120827, 0.4374291054
1506.842856, 0.4324875359
1506.828290, 0.4285328236
1506.038076, 0.4255722517
1506.023510, 0.4216175394
1506.008943, 0.4176628272
1505.994377, 0.4137081149
1505.979811, 0.4097534026
1505.965245, 0.4057986903
1505.950679, 0.4018439781
1505.936113, 0.3978892658
1505.921546, 0.3939345535
1505.906980, 0.3899798413
1505.892414, 0.3860251290
1505.877848, 0.3820704167
1508.876049, 0.4908067965
1508.599899, 0.4863595659
1507.807864, 0.4829046550
1507.793298, 0.4789499427
1507.778732, 0.4749952305
1507.764166, 0.4710405182
1507.749599, 0.4670858059
1507.735033, 0.4631310937
1507.720467, 0.4591763814
1507.705901, 0.4552216691
1507.691335, 0.4512669568
1507.676769, 0.4473122446
1507.662202, 0.4433575323
1510.631271, 0.5441844875
1510.355121, 0.5397372570
1509.563086, 0.5362823461
1509.548520, 0.5323276338
1509.533954, 0.5283729215
1509.519388, 0.5244182092
1509.504822, 0.5204634970
1509.490255, 0.5165087847
1509.475689, 0.5125540724
1509.461123, 0.5085993602
1509.446557, 0.5046446479
1509.431991, 0.5006899356
1509.417425, 0.4967352233
1512.386493, 0.5975621786
1512.108523, 0.5926206090
1512.095777, 0.5891602357
1511.303742, 0.5857053248
1511.289176, 0.5817506125
1511.274610, 0.5777959003
1511.260044, 0.5738411880
1511.245478, 0.5698864757
1511.230912, 0.5659317635
1511.216345, 0.5619770512
1511.201779, 0.5580223389
1511.187213, 0.5540676267
1511.172647, 0.5501129144
1513.867386, 0.6469869781
1513.852820, 0.6430322658
1513.840075, 0.6395718926
1513.044398, 0.6351283036
1513.029832, 0.6311735913
1513.015266, 0.6272188790
1513.000700, 0.6232641668
1512.986134, 0.6193094545
1512.971568, 0.6153547422
1512.957001, 0.6114000300
1512.942435, 0.6074453177
1512.927869, 0.6034906054
1515.717289, 0.7260702989
1515.702722, 0.7221155866
1515.688156, 0.7181608743
1515.673590, 0.7142061621
1515.659024, 0.7102514498
1515.644458, 0.7062967375
1514.850602, 0.7023474876
1514.836036, 0.6983927753
1514.821470, 0.6944380630
1514.806904, 0.6904833508
1514.792337, 0.6865286385
1514.777771, 0.6825739262
1514.763205, 0.6786192139
1514.748639, 0.6746645017
1514.734073, 0.6707097894
1514.719507, 0.6667550771
1514.704941, 0.6628003649
1514.690374, 0.6588456526
1514.675808, 0.6548909403
1514.661242, 0.6509362281
1517.538059, 0.7972441951
1517.523492, 0.7932894829
1517.510747, 0.7898291096
1516.715071, 0.7853855206
1516.700504, 0.7814308084
1516.685938, 0.7774760961
1516.671372, 0.7735213838
1516.656806, 0.7695666716
1516.642240, 0.7656119593
1516.627674, 0.7616572470
1516.613107, 0.7577025347
1516.598541, 0.7537478225
1516.583975, 0.7497931102
1516.569409, 0.7458383979
1516.554843, 0.7418836857
1516.540277, 0.7379289734
1516.525710, 0.7339742611
1516.511144, 0.7300195489
1519.531195, 0.8446879970
1519.253224, 0.8397464274
1519.238658, 0.8357917152
1519.224091, 0.8318370029
1518.433877, 0.8288764310
1518.419311, 0.8249217187
1518.404745, 0.8209670065
1518.390179, 0.8170122942
1518.375613, 0.8130575819
1518.361047, 0.8091028697
1518.346480, 0.8051481574
1518.331914, 0.8011934451
1520.924691, 0.8703845229
1520.910124, 0.8664298107
1520.895558, 0.8624750984
1520.880992, 0.8585203861
1520.087136, 0.8545711361
1520.072570, 0.8506164239
1522.541534, 0.8861924474
1522.526968, 0.8822377351
1522.512402, 0.8782830228
1521.718546, 0.8743337729
1524.403575, 0.8980438388
1524.127425, 0.8935966083
1523.335390, 0.8901416973
1525.985217, 0.9042945420
1528.845040, 0.9049336322
1528.058467, 0.9029617384
1530.385411, 0.8999793172
1530.372666, 0.8965189440
1531.911216, 0.8910702900
1531.896650, 0.8871155777
1532.657732, 0.8821667251
1533.422455, 0.8782065505
1534.187179, 0.8742463759
1534.172613, 0.8702916637
1534.933694, 0.8653428110
1534.919128, 0.8613880987
1535.680210, 0.8564392461
1535.665644, 0.8524845338
1536.430367, 0.8485243592
1536.415801, 0.8445696470
1537.180524, 0.8406094724
1537.165958, 0.8366547601
1537.927040, 0.8317059075
1537.912474, 0.8277511952
1537.897908, 0.8237964829
1537.111335, 0.8218245891
1538.658990, 0.8188476303
1539.420071, 0.8138987776
1539.405505, 0.8099440654
1539.390939, 0.8059893531
1539.376373, 0.8020346408
1540.137455, 0.7970857882
1540.122889, 0.7931310759
1540.887612, 0.7891709013
1540.873046, 0.7852161890
1540.858480, 0.7812614768
1540.843914, 0.7773067645
1541.608637, 0.7733465899
1541.594071, 0.7693918776
1541.579505, 0.7654371654
1542.344228, 0.7614769908
1542.329662, 0.7575222785
1542.316916, 0.7540619053
1543.079819, 0.7496073917
1543.065253, 0.7456526794
1543.050687, 0.7416979671
1543.811769, 0.7367491145
1543.797202, 0.7327944022
1543.782636, 0.7288396899
1544.543718, 0.7238908373
1544.529152, 0.7199361250
1544.514586, 0.7159814128
1544.500020, 0.7120267005
1545.261101, 0.7070778478
1545.246535, 0.7031231356
1545.231969, 0.6991684233
1545.993051, 0.6942195706
1545.978485, 0.6902648584
1545.963919, 0.6863101461
1545.949352, 0.6823554338
1546.710434, 0.6774065812
1546.695868, 0.6734518689
1545.909295, 0.6714799751
1547.456950, 0.6685030163
1547.442384, 0.6645483040
1547.427818, 0.6605935917
1547.413251, 0.6566388794
1547.398685, 0.6526841672
1547.384119, 0.6487294549
1547.369553, 0.6447747426
1547.354987, 0.6408200304
1547.340421, 0.6368653181
1548.101502, 0.6319164654
1548.086936, 0.6279617532
1548.072370, 0.6240070409
1548.057804, 0.6200523286
1548.043238, 0.6160976164
1548.804320, 0.6111487637
1548.789753, 0.6071940514
1548.775187, 0.6032393392
1548.760621, 0.5992846269
1548.746055, 0.5953299146
1548.731489, 0.5913752024
1548.716923, 0.5874204901
1548.702357, 0.5834657778
1548.687790, 0.5795110655
1548.673224, 0.5755563533
1548.658658, 0.5716016410
1549.419740, 0.5666527884
1549.405174, 0.5626980761
1549.390608, 0.5587433638
1549.376041, 0.5547886515
1549.361475, 0.5508339393
1549.346909, 0.5468792270
1549.332343, 0.5429245147
1549.317777, 0.5389698025
1548.531204, 0.5369979086
1550.078859, 0.5340209498
1550.064292, 0.5300662375
1550.049726, 0.5261115253
1550.035160, 0.5221568130
1550.020594, 0.5182021007
1550.006028, 0.5142473885
1549.991462, 0.5102926762
1549.976895, 0.5063379639
1549.962329, 0.5023832516
1549.947763, 0.4984285394
1549.933197, 0.4944738271
1549.918631, 0.4905191148
1549.904065, 0.4865644026
1550.668788, 0.4826042280
1550.654222, 0.4786495157
1550.639656, 0.4746948034
1550.625090, 0.4707400912
1550.610523, 0.4667853789
1550.595957, 0.4628306666
1550.581391, 0.4588759543
1551.346114, 0.4549157798
1551.331548, 0.4509610675
1551.316982, 0.4470063552
1551.302416, 0.4430516430
1551.287850, 0.4390969307
1551.273284, 0.4351422184
1551.258717, 0.4311875061
1551.244151, 0.4272327939
1551.229585, 0.4232780816
1551.215019, 0.4193233693
1551.200453, 0.4153686571
1551.185887, 0.4114139448
1551.171321, 0.4074592325
1551.156754, 0.4035045202
1551.142188, 0.3995498080
1551.906912, 0.3955896334
1551.892345, 0.3916349211
1551.877779, 0.3876802089
1551.863213, 0.3837254966
1551.848647, 0.3797707843
1551.834081, 0.3758160720
1551.819515, 0.3718613598
1551.804948, 0.3679066475
1551.790382, 0.3639519352
1551.775816, 0.3599972230
1551.761250, 0.3560425107
1551.746684, 0.3520877984
1551.732118, 0.3481330861
1552.496841, 0.3441729116
1552.482275, 0.3402181993
1552.467709, 0.3362634870
1552.453143, 0.3323087747
1552.438576, 0.3283540625
1552.424010, 0.3243993502
1552.409444, 0.3204446379
1552.394878, 0.3164899257
1552.380312, 0.3125352134
1552.365746, 0.3085805011
1553.126827, 0.3036316485
1553.112261, 0.2996769362
1553.097695, 0.2957222239
1553.083129, 0.2917675117
1553.068563, 0.2878127994
1553.053997, 0.2838580871
1553.039430, 0.2799033748
1553.024864, 0.2759486626
1553.010298, 0.2719939503
1552.995732, 0.2680392380
1552.981166, 0.2640845258
1552.966600, 0.2601298135
1552.952034, 0.2561751012
1552.937467, 0.2522203890
1552.150895, 0.2502484951
1553.698549, 0.2472715363
1553.683983, 0.2433168240
1553.669417, 0.2393621118
1553.654851, 0.2354073995
1553.640285, 0.2314526872
1553.625718, 0.2274979749
1553.611152, 0.2235432627
1553.596586, 0.2195885504
1553.582020, 0.2156338381
1554.346743, 0.2116736636
1554.332177, 0.2077189513
1554.317611, 0.2037642390
1554.303045, 0.1998095267
1554.288479, 0.1958548145
1554.273912, 0.1919001022
1554.259346, 0.1879453899
1554.244780, 0.1839906777
1554.230214, 0.1800359654
1554.215648, 0.1760812531
1554.201082, 0.1721265408
1554.186516, 0.1681718286
1554.173770, 0.1647114553
1554.936673, 0.1602569417
1554.922107, 0.1563022295
1554.907540, 0.1523475172
1554.892974, 0.1483928049
1554.878408, 0.1444380926
1554.863842, 0.1404833804
1554.849276, 0.1365286681
1554.834710, 0.1325739558
1554.820143, 0.1286192436
1555.581225, 0.1236703909
1555.566659, 0.1197156786
1555.552093, 0.1157609664
1555.537527, 0.1118062541
1555.522961, 0.1078515418
1555.508394, 0.1038968296
1555.493828, 0.09994211728
1555.479262, 0.09598740501
1556.240344, 0.09103855236
1556.225778, 0.08708384009
1556.211212, 0.08312912782
1556.196646, 0.07917441555
1556.182079, 0.07521970328
1556.167513, 0.07126499101
1556.152947, 0.06731027873
1556.138381, 0.06335556646
1556.123815, 0.05940085419
1556.884897, 0.05445200154
1556.870330, 0.05049728927
1557.631412, 0.04554843662
1557.616846, 0.04159372435
1557.602280, 0.03763901208
1557.587714, 0.03368429981
1557.573148, 0.02972958754
1558.334229, 0.02478073489
1559.095311, 0.01983188224
1559.860035, 0.01587170766
1560.628400, 0.01290021115
1563.008146, 0.02425362200
1562.212469, 0.01981003300
1562.201545, 0.01684399880
1564.882932, 0.03956538666
1564.606782, 0.03511815613
1563.814747, 0.03166324520
1563.800181, 0.02770853293
1566.521625, 0.06130537953
1566.243654, 0.05636380996
1566.229088, 0.05240909769
1565.438874, 0.04944852580
1565.424307, 0.04549381353
1568.145752, 0.07909066013
1567.092133, 0.07514323094
1567.077567, 0.07118851867
1567.063000, 0.06723380640
1569.785658, 0.1011602124
1568.730826, 0.09688322381
1568.716260, 0.09292851154
1568.701693, 0.08897379927
1568.687127, 0.08501908700
1571.437704, 0.1265253581
1570.384085, 0.1225779290
1570.369519, 0.1186232167
1570.354952, 0.1146685044
1570.340386, 0.1107137921
1570.325820, 0.1067590799
1572.831200, 0.1522218841
1572.037344, 0.1482726341
1572.022778, 0.1443179218
1572.008212, 0.1403632096
1571.993645, 0.1364084973
1571.979079, 0.1324537850
1574.752719, 0.1802216839
1573.697886, 0.1759446954
1573.683320, 0.1719899831
1573.668754, 0.1680352708
1573.654188, 0.1640805586
1573.639621, 0.1601258463
1573.625055, 0.1561711340
1576.159567, 0.2095433627
1575.365711, 0.2055941128
1575.351145, 0.2016394005
1575.336579, 0.1976846882
1575.322013, 0.1937299760
1575.307447, 0.1897752637
1575.292880, 0.1858205514
1578.094438, 0.2411683155
1577.040820, 0.2372208863
1577.026253, 0.2332661741
1577.011687, 0.2293114618
1576.997121, 0.2253567495
1576.982555, 0.2214020372
1576.967989, 0.2174473250
1576.953423, 0.2134926127
1579.502501, 0.2708195537
1578.708645, 0.2668703037
1578.694079, 0.2629155915
1578.679513, 0.2589608792
1578.664946, 0.2550061669
1578.650380, 0.2510514547
1578.635814, 0.2470967424
1581.177609, 0.3024463273
1581.164863, 0.2989859540
1580.369187, 0.2945423650
1580.354621, 0.2905876528
1580.340055, 0.2866329405
1580.325489, 0.2826782282
1580.310922, 0.2787235159
1580.296356, 0.2747688037
1583.127047, 0.3380259923
1582.850896, 0.3335787618
1582.058861, 0.3301238508
1582.044295, 0.3261691386
1582.029729, 0.3222144263
1582.015163, 0.3182597140
1582.000597, 0.3143050018
1581.986031, 0.3103502895
1581.971465, 0.3063955772
1584.809438, 0.3716301220
1584.533288, 0.3671828915
1583.741253, 0.3637279805
1583.726687, 0.3597732683
1583.712121, 0.3558185560
1583.697554, 0.3518638437
1583.682988, 0.3479091314
1583.668422, 0.3439544192
1586.491829, 0.4052342517
1586.215679, 0.4007870211
1585.423644, 0.3973321102
1585.409078, 0.3933773979
1585.394512, 0.3894226857
1585.379946, 0.3854679734
1585.365380, 0.3815132611
1585.350814, 0.3775585489
1588.188787, 0.4427930936
1587.912637, 0.4383458631
1587.120602, 0.4348909522
1587.106036, 0.4309362399
1587.091470, 0.4269815276
1587.076903, 0.4230268154
1587.062337, 0.4190721031
1587.047771, 0.4151173908
1587.033205, 0.4111626785
1589.625981, 0.4803537564
1589.611415, 0.4763990441
1588.817559, 0.4724497941
1588.802993, 0.4684950818
1588.788427, 0.4645403696
1588.773861, 0.4605856573
1588.759295, 0.4566309450
1588.744729, 0.4526762328
1588.730162, 0.4487215205
1591.589985, 0.5198881337
1591.313835, 0.5154409031
1590.521800, 0.5119859922
1590.507234, 0.5080312799
1590.492668, 0.5040765677
1590.478102, 0.5001218554
1590.463535, 0.4961671431
1590.448969, 0.4922124309
1590.434403, 0.4882577186
1590.419837, 0.4843030063
1593.041746, 0.5614035087
1593.027180, 0.5574487964
1592.233324, 0.5534995464
1592.218758, 0.5495448342
1592.204192, 0.5455901219
1592.189625, 0.5416354096
1592.175059, 0.5376806974
1592.160493, 0.5337259851
1592.145927, 0.5297712728
1592.131361, 0.5258165605
1595.020316, 0.6048925983
1594.742345, 0.5999510287
1593.952131, 0.5969904568
1593.937564, 0.5930357445
1593.922998, 0.5890810323
1593.908432, 0.5851263200
1593.893866, 0.5811716077
1593.879300, 0.5772168954
1593.864734, 0.5732621832
1593.850168, 0.5693074709
1593.835601, 0.5653527586
1596.472076, 0.6464079733
1596.457510, 0.6424532610
1596.444765, 0.6389928877
1595.649088, 0.6345492988
1595.634522, 0.6305945865
1595.619956, 0.6266398742
1595.605390, 0.6226851619
1595.590824, 0.6187304497
1595.576257, 0.6147757374
1595.561691, 0.6108210251
1598.176317, 0.6859441713
1598.161751, 0.6819894591
1597.367895, 0.6780402091
1597.353329, 0.6740854968
1597.338763, 0.6701307846
1597.324197, 0.6661760723
1597.309630, 0.6622213600
1597.295064, 0.6582666478
1597.280498, 0.6543119355
1597.265932, 0.6503572232
1600.154887, 0.7294332609
1599.876916, 0.7244916914
1599.086702, 0.7215311195
1599.072136, 0.7175764072
1599.057569, 0.7136216949
1599.043003, 0.7096669827
1599.028437, 0.7057122704
1599.013871, 0.7017575581
1598.999305, 0.6978028458
1598.984739, 0.6938481336
1598.970173, 0.6898934213
1601.866411, 0.7709468152
1601.590260, 0.7664995846
1600.798226, 0.7630446737
1600.783659, 0.7590899614
1600.769093, 0.7551352492
1600.754527, 0.7511805369
1600.739961, 0.7472258246
1600.725395, 0.7432711123
1600.710829, 0.7393164001
1600.696262, 0.7353616878
1603.577934, 0.8124603694
1603.299963, 0.8075187998
1602.509749, 0.8045582279
1602.495183, 0.8006035157
1602.480617, 0.7966488034
1602.466051, 0.7926940911
1602.451485, 0.7887393788
1602.436918, 0.7847846666
1602.422352, 0.7808299543
1602.407786, 0.7768752420
1605.274892, 0.8500192113
1604.998742, 0.8455719808
1604.206707, 0.8421170699
1604.192141, 0.8381623576
1604.177575, 0.8342076453
1604.163008, 0.8302529331
1604.148442, 0.8262982208
1604.133876, 0.8223435085
1604.119310, 0.8183887963
1606.957283, 0.8836233410
1605.903664, 0.8796759118
1605.889098, 0.8757211996
1605.874532, 0.8717664873
1605.859966, 0.8678117750
1605.845400, 0.8638570628
1605.830834, 0.8599023505
1605.816267, 0.8559476382
1608.626322, 0.9136023178
1607.571490, 0.9093253292
1607.556923, 0.9053706170
1607.542357, 0.9014159047
1607.527791, 0.8974611924
1607.513225, 0.8935064802
1607.498659, 0.8895517679
1610.018604, 0.9389692844
1609.224749, 0.9350200344
1609.210183, 0.9310653221
1609.195616, 0.9271106098
1609.181050, 0.9231558976
1609.166484, 0.9192011853
1611.910991, 0.9590596597
1610.856159, 0.9547826711
1610.841592, 0.9508279589
1610.827026, 0.9468732466
1610.812460, 0.9429185343
1613.259575, 0.9725624894
1612.465719, 0.9686132395
1612.451153, 0.9646585272
1614.850928, 0.9814496674
1614.053431, 0.9765117394
1616.431356, 0.9873708112
1619.548514, 0.9873489620
1621.085244, 0.9814059689
1621.846326, 0.9764571163
1622.612870, 0.9729912807
1623.375773, 0.9685367671
1624.136854, 0.9635879145
1624.897936, 0.9586390618
1624.883370, 0.9546843495
1625.649914, 0.9512185140
1626.412817, 0.9467640004
1626.398251, 0.9428092881
1627.159332, 0.9378604355
1627.920414, 0.9329115828
1627.905848, 0.9289568705
1628.666930, 0.9240080179
1627.880357, 0.9220361241
1629.428012, 0.9190591653
1629.413446, 0.9151044530
1629.398879, 0.9111497407
1630.159961, 0.9062008881
1629.373389, 0.9042289942
1630.921043, 0.9012520354
1630.906477, 0.8972973231
1630.891911, 0.8933426109
1631.656634, 0.8893824363
1632.421358, 0.8854222617
1632.406791, 0.8814675494
1632.392225, 0.8775128372
1632.377659, 0.8735581249
1633.142382, 0.8695979503
1633.907106, 0.8656377757
1633.892540, 0.8616830635
1633.877973, 0.8577283512
1634.639055, 0.8527794985
1634.624489, 0.8488247863
1635.385571, 0.8438759336
1635.371005, 0.8399212214
1635.356439, 0.8359665091
1636.117520, 0.8310176564
1636.102954, 0.8270629442
1636.864036, 0.8221140915
1636.849470, 0.8181593792
1636.834904, 0.8142046670
1637.595986, 0.8092558143
1636.809413, 0.8072839205
1638.357067, 0.8043069617
1638.342501, 0.8003522494
1638.327935, 0.7963975371
1638.313369, 0.7924428249
1639.074451, 0.7874939722
1638.287878, 0.7855220784
1639.835533, 0.7825451196
1639.820967, 0.7785904073
1639.806400, 0.7746356950
1639.791834, 0.7706809828
1640.556558, 0.7667208082
1640.543812, 0.7632604349
1641.306715, 0.7588059213
1641.292149, 0.7548512091
1641.277582, 0.7508964968
1641.263016, 0.7469417845
1642.027740, 0.7429816099
1642.014994, 0.7395212367
1642.777897, 0.7350667231
1642.763331, 0.7311120108
1642.748765, 0.7271572985
1642.734198, 0.7232025863
1643.498922, 0.7192424117
1643.486176, 0.7157820384
1644.249079, 0.7113275248
1644.234513, 0.7073728126
1644.219947, 0.7034181003
1644.205380, 0.6994633880
1644.970104, 0.6955032134
1644.957358, 0.6920428402
1645.720261, 0.6875883266
1645.705695, 0.6836336143
1645.691129, 0.6796789020
1645.676563, 0.6757241898
1646.441286, 0.6717640152
1647.206009, 0.6678038406
1647.191443, 0.6638491283
1647.176877, 0.6598944161
1647.162311, 0.6559397038
1647.147745, 0.6519849915
1647.912468, 0.6480248169
1648.677191, 0.6440646424
1648.662625, 0.6401099301
1648.648059, 0.6361552178
1648.633493, 0.6322005056
1649.398216, 0.6282403310
1650.162940, 0.6242801564
1650.148374, 0.6203254441
1650.133807, 0.6163707318
1650.119241, 0.6124160196
1650.883965, 0.6084558450
1651.648688, 0.6044956704
1651.634122, 0.6005409581
1651.619556, 0.5965862459
1651.604989, 0.5926315336
1652.369713, 0.5886713590
1653.134436, 0.5847111844
1653.119870, 0.5807564722
1653.105304, 0.5768017599
1653.866386, 0.5718529073
1653.851820, 0.5678981950
1653.837253, 0.5639434827
1654.598335, 0.5589946301
1655.363059, 0.5550344555
1655.348492, 0.5510797432
1655.333926, 0.5471250309
1655.321181, 0.5436646577
1656.084083, 0.5392101441
1656.069517, 0.5352554318
1656.834241, 0.5312952572
1656.819674, 0.5273405450
1657.584398, 0.5233803704
1657.569832, 0.5194256581
1657.555266, 0.5154709458
1658.319989, 0.5115107713
1658.307244, 0.5080503980
1659.070146, 0.5035958844
1659.055580, 0.4996411721
1659.041014, 0.4956864599
1659.805737, 0.4917262853
1660.570461, 0.4877661107
1660.555894, 0.4838113984
1660.541328, 0.4798566862
1660.526762, 0.4759019739
1661.291485, 0.4719417993
1662.056209, 0.4679816247
1662.041643, 0.4640269125
1662.027076, 0.4600722002
1662.788158, 0.4551233475
1662.001586, 0.4531514537
1663.549240, 0.4501744949
1663.534674, 0.4462197826
1663.520108, 0.4422650703
1664.281190, 0.4373162177
1663.494617, 0.4353443239
1665.042271, 0.4323673651
1665.027705, 0.4284126528
1665.013139, 0.4244579405
1664.998573, 0.4205032282
1665.763296, 0.4165430537
1666.528020, 0.4125828791
1666.513454, 0.4086281668
1666.498887, 0.4046734545
1667.259969, 0.3997246019
1666.473397, 0.3977527081
1668.021051, 0.3947757492
1668.006485, 0.3908210370
1667.991919, 0.3868663247
1668.753001, 0.3819174720
1667.966428, 0.3799455782
1669.514082, 0.3769686194
1669.499516, 0.3730139071
1669.484950, 0.3690591949
1670.246032, 0.3641103422
1669.459459, 0.3621384484
1671.007114, 0.3591614896
1670.992548, 0.3552067773
1670.977981, 0.3512520650
1671.739063, 0.3463032124
1670.952491, 0.3443313185
1672.500145, 0.3413543597
1672.485579, 0.3373996475
1672.471013, 0.3334449352
1673.235736, 0.3294847606
1674.000459, 0.3255245860
1673.985893, 0.3215698737
1673.971327, 0.3176151615
1674.736051, 0.3136549869
1675.500774, 0.3096948123
1675.486208, 0.3057401000
1675.471642, 0.3017853878
1676.236365, 0.2978252132
1677.001088, 0.2938650386
1676.986522, 0.2899103263
1677.747604, 0.2849614737
1676.961031, 0.2829895799
1678.508686, 0.2800126210
1678.494120, 0.2760579088
1678.479553, 0.2721031965
1679.244277, 0.2681430219
1680.009000, 0.2641828473
1679.994434, 0.2602281351
1680.759157, 0.2562679605
1680.746412, 0.2528075873
1681.509315, 0.2483530736
1682.270396, 0.2434042210
1681.483824, 0.2414323272
1683.031478, 0.2384553683
1683.016912, 0.2345006561
1683.781636, 0.2305404815
1684.546359, 0.2265803069
1685.307441, 0.2216314543
1685.292875, 0.2176767420
1686.053956, 0.2127278893
1686.818680, 0.2087677148
1686.805934, 0.2053073415
1688.344485, 0.1998586875
1688.329919, 0.1959039753
1687.543346, 0.1939320814
1689.866649, 0.1899609822
1689.852082, 0.1860062700
1689.065510, 0.1840343761
1691.388812, 0.1800632769
1691.374246, 0.1761085647
1692.914617, 0.1711542497
1692.901872, 0.1676938765
1694.440423, 0.1622452225
1693.653850, 0.1602733287
1695.201504, 0.1572963698
1695.966228, 0.1533361952
1696.730951, 0.1493760207
1697.495675, 0.1454158461
1698.260398, 0.1414556715
1699.025121, 0.1374954969
1699.789845, 0.1335353223
1700.556389, 0.1300694868
1701.319291, 0.1256149732
1702.085836, 0.1221491376
1703.624386, 0.1167004836
1704.385468, 0.1117516310
1705.929481, 0.1077859941
1706.690563, 0.1028371415
1707.451644, 0.09788828881
1708.995657, 0.09392265192
1709.756739, 0.08897379927
1711.293469, 0.08303080624
1712.054551, 0.07808195359
1713.598564, 0.07411631670
1714.359646, 0.06916746406
1715.896375, 0.06322447103
1716.657457, 0.05827561838
1718.201470, 0.05430998149
1718.190545, 0.05134394729
1719.738200, 0.04836698846
1720.504744, 0.04490115292
1722.043295, 0.03945249893
1723.585487, 0.03499252300
1725.129500, 0.03102688611
1726.673513, 0.02706124922
1728.217525, 0.02309561233
1729.761538, 0.01912997544
1732.090303, 0.01664189334
1734.413606, 0.01267079414
1737.518018, 0.009188571664
1740.622431, 0.005706349188
1743.725023, 0.001729787678
1746.831256, -0.001258095765
1749.937490, -0.004245979207
1753.049186, -0.005750845548
1756.164523, -0.006267033821
1759.281681, -0.006288883060
1762.393377, -0.007793749400
1765.508714, -0.008309937673
1768.625872, -0.008331786912
1771.743030, -0.008353636152
1774.860189, -0.008375485391
1777.975526, -0.008891673664
1781.090863, -0.009407861936
1784.208021, -0.009429711176
1787.325179, -0.009451560415
1789.663048, -0.009467947344
